RRKM rate, sf=0.970, S*=-14.19, E0=0.02 and Delta=-1.30
   En (eV)    k (s-1)
         0          0
  0.012398          0
  0.024796 4.2827e+11
  0.037194 7.4946e+11
  0.049593 9.3037e+11
  0.061991 1.1756e+12
  0.074389 1.2562e+12
  0.086787  1.466e+12
  0.099185 1.5618e+12
   0.11158 1.7116e+12
   0.12398  1.792e+12
   0.13638 1.9071e+12
   0.14878 1.9945e+12
   0.16118 2.0947e+12
   0.17357 2.1758e+12
   0.18597 2.2587e+12
   0.19837 2.3343e+12
   0.21077 2.4104e+12
   0.22317 2.4809e+12
   0.23556 2.5492e+12
   0.24796 2.6142e+12
   0.26036 2.6774e+12
   0.27276 2.7388e+12
   0.28516 2.7976e+12
   0.29756 2.8548e+12
   0.30995 2.9098e+12
   0.32235 2.9637e+12
   0.33475 3.0157e+12
   0.34715 3.0665e+12
   0.35955 3.1158e+12
   0.37194 3.1639e+12
   0.38434 3.2108e+12
   0.39674 3.2566e+12
   0.40914 3.3012e+12
   0.42154 3.3449e+12
   0.43393 3.3876e+12
   0.44633 3.4294e+12
   0.45873 3.4702e+12
   0.47113 3.5103e+12
   0.48353 3.5495e+12
   0.49593  3.588e+12
   0.50832 3.6257e+12
   0.52072 3.6628e+12
   0.53312 3.6991e+12
   0.54552 3.7348e+12
   0.55792 3.7699e+12
   0.57031 3.8044e+12
   0.58271 3.8383e+12
   0.59511 3.8717e+12
   0.60751 3.9044e+12
   0.61991 3.9367e+12
    0.6323 3.9685e+12
    0.6447 3.9998e+12
    0.6571 4.0306e+12
    0.6695  4.061e+12
    0.6819 4.0909e+12
    0.6943 4.1204e+12
   0.70669 4.1494e+12
   0.71909 4.1781e+12
   0.73149 4.2064e+12
   0.74389 4.2343e+12
   0.75629 4.2618e+12
   0.76868 4.2889e+12
   0.78108 4.3157e+12
   0.79348 4.3422e+12
   0.80588 4.3684e+12
   0.81828 4.3942e+12
   0.83067 4.4197e+12
   0.84307 4.4449e+12
   0.85547 4.4697e+12
   0.86787 4.4943e+12
   0.88027 4.5186e+12
   0.89267 4.5427e+12
   0.90506 4.5664e+12
   0.91746 4.5899e+12
   0.92986 4.6131e+12
   0.94226 4.6361e+12
   0.95466 4.6588e+12
   0.96705 4.6813e+12
   0.97945 4.7036e+12
   0.99185 4.7256e+12
    1.0042 4.7473e+12
    1.0166 4.7689e+12
     1.029 4.7902e+12
    1.0414 4.8113e+12
    1.0538 4.8322e+12
    1.0662  4.853e+12
    1.0786 4.8734e+12
     1.091 4.8937e+12
    1.1034 4.9138e+12
    1.1158 4.9337e+12
    1.1282 4.9535e+12
    1.1406  4.973e+12
     1.153 4.9924e+12
    1.1654 5.0115e+12
    1.1778 5.0305e+12
    1.1902 5.0494e+12
    1.2026  5.068e+12
     1.215 5.0865e+12
    1.2274 5.1049e+12
    1.2398  5.123e+12
    1.2522 5.1411e+12
    1.2646 5.1589e+12
     1.277 5.1766e+12
    1.2894 5.1942e+12
    1.3018 5.2116e+12
    1.3142 5.2289e+12
    1.3266  5.246e+12
     1.339  5.263e+12
    1.3514 5.2798e+12
    1.3638 5.2965e+12
    1.3762 5.3131e+12
    1.3886 5.3295e+12
     1.401 5.3458e+12
    1.4134  5.362e+12
    1.4258 5.3781e+12
    1.4382  5.394e+12
    1.4506 5.4098e+12
     1.463 5.4255e+12
    1.4754 5.4411e+12
    1.4878 5.4565e+12
    1.5002 5.4719e+12
    1.5126 5.4871e+12
     1.525 5.5022e+12
    1.5374 5.5172e+12
    1.5498 5.5321e+12
    1.5622 5.5469e+12
    1.5746 5.5616e+12
     1.587 5.5761e+12
    1.5994 5.5906e+12
    1.6118  5.605e+12
    1.6242 5.6192e+12
    1.6366 5.6334e+12
     1.649 5.6474e+12
    1.6613 5.6614e+12
    1.6737 5.6753e+12
    1.6861  5.689e+12
    1.6985 5.7027e+12
    1.7109 5.7163e+12
    1.7233 5.7298e+12
    1.7357 5.7432e+12
    1.7481 5.7565e+12
    1.7605 5.7698e+12
    1.7729 5.7829e+12
    1.7853  5.796e+12
    1.7977  5.809e+12
    1.8101 5.8219e+12
    1.8225 5.8347e+12
    1.8349 5.8474e+12
    1.8473   5.86e+12
    1.8597 5.8726e+12
    1.8721 5.8851e+12
    1.8845 5.8975e+12
    1.8969 5.9098e+12
    1.9093 5.9221e+12
    1.9217 5.9343e+12
    1.9341 5.9463e+12
    1.9465 5.9584e+12
    1.9589 5.9703e+12
    1.9713 5.9822e+12
    1.9837  5.994e+12
    1.9961 6.0058e+12
    2.0085 6.0174e+12
    2.0209  6.029e+12
    2.0333 6.0406e+12
    2.0457  6.052e+12
    2.0581 6.0635e+12
    2.0705 6.0748e+12
    2.0829 6.0861e+12
    2.0953 6.0972e+12
    2.1077 6.1084e+12
    2.1201 6.1195e+12
    2.1325 6.1305e+12
    2.1449 6.1415e+12
    2.1573 6.1524e+12
    2.1697 6.1632e+12
    2.1821  6.174e+12
    2.1945 6.1847e+12
    2.2069 6.1953e+12
    2.2193 6.2059e+12
    2.2317 6.2165e+12
    2.2441 6.2269e+12
    2.2565 6.2373e+12
    2.2689 6.2477e+12
    2.2813  6.258e+12
    2.2937 6.2683e+12
    2.3061 6.2785e+12
    2.3185 6.2886e+12
    2.3308 6.2987e+12
    2.3432 6.3088e+12
    2.3556 6.3188e+12
     2.368 6.3287e+12
    2.3804 6.3386e+12
    2.3928 6.3484e+12
    2.4052 6.3582e+12
    2.4176 6.3679e+12
      2.43 6.3776e+12
    2.4424 6.3872e+12
    2.4548 6.3968e+12
    2.4672 6.4064e+12
    2.4796 6.4158e+12
     2.492 6.4253e+12
    2.5044 6.4347e+12
    2.5168  6.444e+12
    2.5292 6.4533e+12
    2.5416 6.4626e+12
     2.554 6.4718e+12
    2.5664  6.481e+12
    2.5788 6.4901e+12
    2.5912 6.4992e+12
    2.6036 6.5082e+12
     2.616 6.5172e+12
    2.6284 6.5262e+12
    2.6408 6.5351e+12
    2.6532 6.5439e+12
    2.6656 6.5528e+12
     2.678 6.5615e+12
    2.6904 6.5702e+12
    2.7028  6.579e+12
    2.7152 6.5876e+12
    2.7276 6.5962e+12
      2.74 6.6048e+12
    2.7524 6.6133e+12
    2.7648 6.6218e+12
    2.7772 6.6303e+12
    2.7896 6.6387e+12
     2.802 6.6471e+12
    2.8144 6.6554e+12
    2.8268 6.6638e+12
    2.8392  6.672e+12
    2.8516 6.6803e+12
     2.864 6.6885e+12
    2.8764 6.6966e+12
    2.8888 6.7047e+12
    2.9012 6.7128e+12
    2.9136 6.7209e+12
     2.926 6.7289e+12
    2.9384 6.7369e+12
    2.9508 6.7448e+12
    2.9632 6.7528e+12
    2.9756 6.7606e+12
     2.988 6.7685e+12
    3.0003 6.7763e+12
    3.0127 6.7841e+12
    3.0251 6.7918e+12
    3.0375 6.7995e+12
    3.0499 6.8072e+12
    3.0623 6.8149e+12
    3.0747 6.8225e+12
    3.0871 6.8301e+12
    3.0995 6.8376e+12
    3.1119 6.8451e+12
    3.1243 6.8526e+12
    3.1367 6.8601e+12
    3.1491 6.8675e+12
    3.1615 6.8749e+12
    3.1739 6.8823e+12
    3.1863 6.8896e+12
    3.1987 6.8969e+12
    3.2111 6.9042e+12
    3.2235 6.9115e+12
    3.2359 6.9187e+12
    3.2483 6.9259e+12
    3.2607  6.933e+12
    3.2731 6.9402e+12
    3.2855 6.9473e+12
    3.2979 6.9544e+12
    3.3103 6.9614e+12
    3.3227 6.9684e+12
    3.3351 6.9754e+12
    3.3475 6.9824e+12
    3.3599 6.9894e+12
    3.3723 6.9963e+12
    3.3847 7.0031e+12
    3.3971   7.01e+12
    3.4095 7.0168e+12
    3.4219 7.0236e+12
    3.4343 7.0304e+12
    3.4467 7.0372e+12
    3.4591 7.0439e+12
    3.4715 7.0506e+12
    3.4839 7.0573e+12
    3.4963 7.0639e+12
    3.5087 7.0706e+12
    3.5211 7.0772e+12
    3.5335 7.0838e+12
    3.5459 7.0903e+12
    3.5583 7.0969e+12
    3.5707 7.1034e+12
    3.5831 7.1099e+12
    3.5955 7.1163e+12
    3.6079 7.1227e+12
    3.6203 7.1291e+12
    3.6327 7.1355e+12
    3.6451 7.1419e+12
    3.6574 7.1482e+12
    3.6698 7.1545e+12
    3.6822 7.1608e+12
    3.6946 7.1671e+12
     3.707 7.1734e+12
    3.7194 7.1796e+12
    3.7318 7.1858e+12
    3.7442  7.192e+12
    3.7566 7.1982e+12
     3.769 7.2043e+12
    3.7814 7.2104e+12
    3.7938 7.2165e+12
    3.8062 7.2226e+12
    3.8186 7.2286e+12
     3.831 7.2347e+12
    3.8434 7.2407e+12
    3.8558 7.2467e+12
    3.8682 7.2526e+12
    3.8806 7.2586e+12
     3.893 7.2645e+12
    3.9054 7.2704e+12
    3.9178 7.2763e+12
    3.9302 7.2822e+12
    3.9426 7.2881e+12
     3.955 7.2939e+12
    3.9674 7.2997e+12
    3.9798 7.3055e+12
    3.9922 7.3113e+12
    4.0046  7.317e+12
     4.017 7.3227e+12
    4.0294 7.3284e+12
    4.0418 7.3341e+12
    4.0542 7.3398e+12
    4.0666 7.3454e+12
     4.079 7.3511e+12
    4.0914 7.3567e+12
    4.1038 7.3623e+12
    4.1162 7.3679e+12
    4.1286 7.3735e+12
     4.141  7.379e+12
    4.1534 7.3845e+12
    4.1658 7.3901e+12
    4.1782 7.3955e+12
    4.1906  7.401e+12
     4.203 7.4065e+12
    4.2154 7.4119e+12
    4.2278 7.4173e+12
    4.2402 7.4227e+12
    4.2526 7.4281e+12
     4.265 7.4335e+12
    4.2774 7.4388e+12
    4.2898 7.4441e+12
    4.3022 7.4495e+12
    4.3146 7.4548e+12
    4.3269 7.4601e+12
    4.3393 7.4653e+12
    4.3517 7.4706e+12
    4.3641 7.4758e+12
    4.3765  7.481e+12
    4.3889 7.4863e+12
    4.4013 7.4914e+12
    4.4137 7.4966e+12
    4.4261 7.5018e+12
    4.4385 7.5069e+12
    4.4509  7.512e+12
    4.4633 7.5171e+12
    4.4757 7.5222e+12
    4.4881 7.5273e+12
    4.5005 7.5323e+12
    4.5129 7.5374e+12
    4.5253 7.5424e+12
    4.5377 7.5474e+12
    4.5501 7.5524e+12
    4.5625 7.5574e+12
    4.5749 7.5624e+12
    4.5873 7.5673e+12
    4.5997 7.5723e+12
    4.6121 7.5772e+12
    4.6245 7.5821e+12
    4.6369  7.587e+12
    4.6493 7.5919e+12
    4.6617 7.5968e+12
    4.6741 7.6016e+12
    4.6865 7.6064e+12
    4.6989 7.6113e+12
    4.7113 7.6161e+12
    4.7237 7.6209e+12
    4.7361 7.6256e+12
    4.7485 7.6304e+12
    4.7609 7.6352e+12
    4.7733 7.6399e+12
    4.7857 7.6446e+12
    4.7981 7.6494e+12
    4.8105 7.6541e+12
    4.8229 7.6588e+12
    4.8353 7.6634e+12
    4.8477 7.6681e+12
    4.8601 7.6727e+12
    4.8725 7.6773e+12
    4.8849 7.6819e+12
    4.8973 7.6866e+12
    4.9097 7.6911e+12
    4.9221 7.6957e+12
    4.9345 7.7002e+12
    4.9469 7.7048e+12
    4.9593 7.7094e+12
    4.9717 7.7139e+12
     4.984 7.7184e+12
    4.9964 7.7229e+12
    5.0088 7.7274e+12
    5.0212 7.7319e+12
    5.0336 7.7363e+12
     5.046 7.7408e+12
    5.0584 7.7452e+12
    5.0708 7.7497e+12
    5.0832 7.7541e+12
    5.0956 7.7584e+12
     5.108 7.7629e+12
    5.1204 7.7672e+12
    5.1328 7.7716e+12
    5.1452 7.7759e+12
    5.1576 7.7803e+12
      5.17 7.7847e+12
    5.1824  7.789e+12
    5.1948 7.7933e+12
    5.2072 7.7976e+12
    5.2196 7.8018e+12
     5.232 7.8061e+12
    5.2444 7.8104e+12
    5.2568 7.8146e+12
    5.2692 7.8189e+12
    5.2816 7.8231e+12
     5.294 7.8273e+12
    5.3064 7.8315e+12
    5.3188 7.8357e+12
    5.3312 7.8399e+12
    5.3436  7.844e+12
     5.356 7.8482e+12
    5.3684 7.8524e+12
    5.3808 7.8565e+12
    5.3932 7.8606e+12
    5.4056 7.8648e+12
     5.418 7.8689e+12
    5.4304 7.8729e+12
    5.4428  7.877e+12
    5.4552 7.8811e+12
    5.4676 7.8852e+12
      5.48 7.8892e+12
    5.4924 7.8933e+12
    5.5048 7.8973e+12
    5.5172 7.9013e+12
    5.5296 7.9053e+12
     5.542 7.9094e+12
    5.5544 7.9133e+12
    5.5668 7.9173e+12
    5.5792 7.9212e+12
    5.5916 7.9252e+12
     5.604 7.9292e+12
    5.6164 7.9331e+12
    5.6288  7.937e+12
    5.6412  7.941e+12
    5.6535 7.9448e+12
    5.6659 7.9488e+12
    5.6783 7.9526e+12
    5.6907 7.9565e+12
    5.7031 7.9604e+12
    5.7155 7.9643e+12
    5.7279 7.9681e+12
    5.7403 7.9719e+12
    5.7527 7.9757e+12
    5.7651 7.9796e+12
    5.7775 7.9834e+12
    5.7899 7.9872e+12
    5.8023  7.991e+12
    5.8147 7.9948e+12
    5.8271 7.9986e+12
    5.8395 8.0023e+12
    5.8519 8.0061e+12
    5.8643 8.0098e+12
    5.8767 8.0135e+12
    5.8891 8.0173e+12
    5.9015  8.021e+12
    5.9139 8.0247e+12
    5.9263 8.0284e+12
    5.9387 8.0321e+12
    5.9511 8.0358e+12
    5.9635 8.0394e+12
    5.9759 8.0431e+12
    5.9883 8.0467e+12
    6.0007 8.0504e+12
    6.0131  8.054e+12
    6.0255 8.0577e+12
    6.0379 8.0613e+12
    6.0503 8.0649e+12
    6.0627 8.0686e+12
    6.0751 8.0721e+12
    6.0875 8.0757e+12
    6.0999 8.0793e+12
    6.1123 8.0828e+12
    6.1247 8.0864e+12
    6.1371 8.0899e+12
    6.1495 8.0935e+12
    6.1619  8.097e+12
    6.1743 8.1005e+12
    6.1867 8.1041e+12
    6.1991 8.1076e+12
    6.2115 8.1111e+12
    6.2239 8.1146e+12
    6.2363 8.1181e+12
    6.2487 8.1215e+12
    6.2611  8.125e+12
    6.2735 8.1284e+12
    6.2859 8.1319e+12
    6.2983 8.1353e+12
    6.3107 8.1388e+12
     6.323 8.1422e+12
    6.3354 8.1456e+12
    6.3478 8.1491e+12
    6.3602 8.1524e+12
    6.3726 8.1558e+12
     6.385 8.1592e+12
    6.3974 8.1626e+12
    6.4098  8.166e+12
    6.4222 8.1693e+12
    6.4346 8.1727e+12
     6.447 8.1761e+12
    6.4594 8.1794e+12
    6.4718 8.1827e+12
    6.4842 8.1861e+12
    6.4966 8.1894e+12
     6.509 8.1927e+12
    6.5214  8.196e+12
    6.5338 8.1993e+12
    6.5462 8.2026e+12
    6.5586 8.2058e+12
     6.571 8.2091e+12
    6.5834 8.2124e+12
    6.5958 8.2156e+12
    6.6082 8.2189e+12
    6.6206 8.2221e+12
     6.633 8.2254e+12
    6.6454 8.2286e+12
    6.6578 8.2318e+12
    6.6702  8.235e+12
    6.6826 8.2383e+12
     6.695 8.2415e+12
    6.7074 8.2446e+12
    6.7198 8.2478e+12
    6.7322  8.251e+12
    6.7446 8.2542e+12
     6.757 8.2574e+12
    6.7694 8.2605e+12
    6.7818 8.2637e+12
    6.7942 8.2668e+12
    6.8066 8.2699e+12
     6.819  8.273e+12
    6.8314 8.2762e+12
    6.8438 8.2793e+12
    6.8562 8.2824e+12
    6.8686 8.2855e+12
     6.881 8.2886e+12
    6.8934 8.2917e+12
    6.9058 8.2948e+12
    6.9182 8.2979e+12
    6.9306 8.3009e+12
     6.943  8.304e+12
    6.9554 8.3071e+12
    6.9678 8.3101e+12
    6.9801 8.3131e+12
    6.9925 8.3162e+12
    7.0049 8.3192e+12
    7.0173 8.3222e+12
    7.0297 8.3253e+12
    7.0421 8.3283e+12
    7.0545 8.3313e+12
    7.0669 8.3343e+12
    7.0793 8.3372e+12
    7.0917 8.3402e+12
    7.1041 8.3432e+12
    7.1165 8.3462e+12
    7.1289 8.3492e+12
    7.1413 8.3521e+12
    7.1537  8.355e+12
    7.1661  8.358e+12
    7.1785  8.361e+12
    7.1909 8.3639e+12
    7.2033 8.3668e+12
    7.2157 8.3697e+12
    7.2281 8.3726e+12
    7.2405 8.3756e+12
    7.2529 8.3784e+12
    7.2653 8.3813e+12
    7.2777 8.3842e+12
    7.2901 8.3871e+12
    7.3025   8.39e+12
    7.3149 8.3929e+12
    7.3273 8.3957e+12
    7.3397 8.3986e+12
    7.3521 8.4015e+12
    7.3645 8.4043e+12
    7.3769 8.4071e+12
    7.3893   8.41e+12
    7.4017 8.4128e+12
    7.4141 8.4156e+12
    7.4265 8.4185e+12
    7.4389 8.4213e+12
    7.4513 8.4241e+12
    7.4637 8.4269e+12
    7.4761 8.4297e+12
    7.4885 8.4325e+12
    7.5009 8.4353e+12
    7.5133  8.438e+12
    7.5257 8.4408e+12
    7.5381 8.4435e+12
    7.5505 8.4463e+12
    7.5629 8.4491e+12
    7.5753 8.4519e+12
    7.5877 8.4546e+12
    7.6001 8.4573e+12
    7.6125 8.4601e+12
    7.6249 8.4628e+12
    7.6373 8.4655e+12
    7.6496 8.4682e+12
     7.662 8.4709e+12
    7.6744 8.4736e+12
    7.6868 8.4763e+12
    7.6992  8.479e+12
    7.7116 8.4817e+12
     7.724 8.4844e+12
    7.7364 8.4871e+12
    7.7488 8.4898e+12
    7.7612 8.4924e+12
    7.7736 8.4951e+12
     7.786 8.4977e+12
    7.7984 8.5004e+12
    7.8108 8.5031e+12
    7.8232 8.5057e+12
    7.8356 8.5083e+12
     7.848 8.5109e+12
    7.8604 8.5136e+12
    7.8728 8.5162e+12
    7.8852 8.5188e+12
    7.8976 8.5214e+12
      7.91  8.524e+12
    7.9224 8.5266e+12
    7.9348 8.5292e+12
    7.9472 8.5318e+12
    7.9596 8.5344e+12
     7.972  8.537e+12
    7.9844 8.5396e+12
    7.9968 8.5421e+12
    8.0092 8.5447e+12
    8.0216 8.5472e+12
     8.034 8.5498e+12
    8.0464 8.5523e+12
    8.0588 8.5549e+12
    8.0712 8.5574e+12
    8.0836 8.5599e+12
     8.096 8.5625e+12
    8.1084  8.565e+12
    8.1208 8.5675e+12
    8.1332 8.5701e+12
    8.1456 8.5726e+12
     8.158 8.5751e+12
    8.1704 8.5775e+12
    8.1828 8.5801e+12
    8.1952 8.5826e+12
    8.2076  8.585e+12
      8.22 8.5875e+12
    8.2324   8.59e+12
    8.2448 8.5924e+12
    8.2572 8.5949e+12
    8.2696 8.5974e+12
     8.282 8.5998e+12
    8.2944 8.6023e+12
    8.3067 8.6048e+12
    8.3191 8.6072e+12
    8.3315 8.6096e+12
    8.3439  8.612e+12
    8.3563 8.6145e+12
    8.3687 8.6169e+12
    8.3811 8.6194e+12
    8.3935 8.6218e+12
    8.4059 8.6241e+12
    8.4183 8.6266e+12
    8.4307  8.629e+12
    8.4431 8.6313e+12
    8.4555 8.6337e+12
    8.4679 8.6361e+12
    8.4803 8.6385e+12
    8.4927 8.6409e+12
    8.5051 8.6433e+12
    8.5175 8.6456e+12
    8.5299  8.648e+12
    8.5423 8.6504e+12
    8.5547 8.6527e+12
    8.5671  8.655e+12
    8.5795 8.6574e+12
    8.5919 8.6598e+12
    8.6043 8.6621e+12
    8.6167 8.6644e+12
    8.6291 8.6667e+12
    8.6415 8.6691e+12
    8.6539 8.6714e+12
    8.6663 8.6737e+12
    8.6787  8.676e+12
    8.6911 8.6783e+12
    8.7035 8.6807e+12
    8.7159 8.6829e+12
    8.7283 8.6852e+12
    8.7407 8.6875e+12
    8.7531 8.6898e+12
    8.7655 8.6921e+12
    8.7779 8.6944e+12
    8.7903 8.6967e+12
    8.8027 8.6989e+12
    8.8151 8.7012e+12
    8.8275 8.7035e+12
    8.8399 8.7057e+12
    8.8523 8.7079e+12
    8.8647 8.7102e+12
    8.8771 8.7125e+12
    8.8895 8.7147e+12
    8.9019 8.7169e+12
    8.9143 8.7192e+12
    8.9267 8.7214e+12
    8.9391 8.7236e+12
    8.9515 8.7258e+12
    8.9639 8.7281e+12
    8.9762 8.7303e+12
    8.9886 8.7325e+12
     9.001 8.7347e+12
    9.0134 8.7369e+12
    9.0258 8.7391e+12
    9.0382 8.7413e+12
    9.0506 8.7435e+12
     9.063 8.7457e+12
    9.0754 8.7478e+12
    9.0878   8.75e+12
    9.1002 8.7522e+12
    9.1126 8.7544e+12
     9.125 8.7565e+12
    9.1374 8.7587e+12
    9.1498 8.7609e+12
    9.1622  8.763e+12
    9.1746 8.7651e+12
     9.187 8.7673e+12
    9.1994 8.7695e+12
    9.2118 8.7716e+12
    9.2242 8.7737e+12
    9.2366 8.7758e+12
     9.249  8.778e+12
    9.2614 8.7801e+12
    9.2738 8.7822e+12
    9.2862 8.7843e+12
    9.2986 8.7865e+12
     9.311 8.7885e+12
    9.3234 8.7907e+12
    9.3358 8.7928e+12
    9.3482 8.7948e+12
    9.3606 8.7969e+12
     9.373  8.799e+12
    9.3854 8.8011e+12
    9.3978 8.8032e+12
    9.4102 8.8053e+12
    9.4226 8.8074e+12
     9.435 8.8094e+12
    9.4474 8.8115e+12
    9.4598 8.8136e+12
    9.4722 8.8156e+12
    9.4846 8.8177e+12
     9.497 8.8197e+12
    9.5094 8.8218e+12
    9.5218 8.8238e+12
    9.5342 8.8259e+12
    9.5466 8.8279e+12
     9.559 8.8299e+12
    9.5714  8.832e+12
    9.5838  8.834e+12
    9.5962  8.836e+12
    9.6086  8.838e+12
     9.621   8.84e+12
    9.6333 8.8421e+12
    9.6457 8.8441e+12
    9.6581 8.8461e+12
    9.6705 8.8481e+12
    9.6829 8.8501e+12
    9.6953 8.8521e+12
    9.7077  8.854e+12
    9.7201 8.8561e+12
    9.7325  8.858e+12
    9.7449 8.8601e+12
    9.7573  8.862e+12
    9.7697  8.864e+12
    9.7821  8.866e+12
    9.7945 8.8679e+12
    9.8069 8.8699e+12
    9.8193 8.8719e+12
    9.8317 8.8738e+12
    9.8441 8.8758e+12
    9.8565 8.8777e+12
    9.8689 8.8797e+12
    9.8813 8.8816e+12
    9.8937 8.8836e+12
    9.9061 8.8855e+12
    9.9185 8.8875e+12
    9.9309 8.8894e+12
    9.9433 8.8913e+12
    9.9557 8.8932e+12
    9.9681 8.8952e+12
    9.9805 8.8971e+12
    9.9929  8.899e+12
    10.005 8.9009e+12
    10.018 8.9028e+12
     10.03 8.9047e+12
    10.042 8.9067e+12
    10.055 8.9085e+12
    10.067 8.9104e+12
     10.08 8.9123e+12
    10.092 8.9142e+12
    10.104 8.9161e+12
    10.117  8.918e+12
    10.129 8.9199e+12
    10.142 8.9218e+12
    10.154 8.9236e+12
    10.166 8.9255e+12
    10.179 8.9274e+12
    10.191 8.9292e+12
    10.204 8.9311e+12
    10.216 8.9329e+12
    10.228 8.9349e+12
    10.241 8.9367e+12
    10.253 8.9386e+12
    10.266 8.9404e+12
    10.278 8.9422e+12
     10.29 8.9441e+12
    10.303 8.9459e+12
    10.315 8.9477e+12
    10.328 8.9495e+12
     10.34 8.9514e+12
    10.352 8.9532e+12
    10.365 8.9551e+12
    10.377 8.9569e+12
     10.39 8.9587e+12
    10.402 8.9605e+12
    10.414 8.9623e+12
    10.427 8.9641e+12
    10.439 8.9659e+12
    10.452 8.9677e+12
    10.464 8.9695e+12
    10.476 8.9714e+12
    10.489 8.9732e+12
    10.501 8.9749e+12
    10.514 8.9767e+12
    10.526 8.9785e+12
    10.538 8.9803e+12
    10.551  8.982e+12
    10.563 8.9838e+12
    10.576 8.9856e+12
    10.588 8.9874e+12
      10.6 8.9891e+12
    10.613 8.9909e+12
    10.625 8.9926e+12
    10.638 8.9944e+12
     10.65 8.9962e+12
    10.662 8.9979e+12
    10.675 8.9997e+12
    10.687 9.0014e+12
      10.7 9.0032e+12
    10.712 9.0049e+12
    10.724 9.0067e+12
    10.737 9.0084e+12
    10.749 9.0101e+12
    10.762 9.0119e+12
    10.774 9.0136e+12
    10.786 9.0153e+12
    10.799  9.017e+12
    10.811 9.0188e+12
    10.824 9.0205e+12
    10.836 9.0222e+12
    10.848 9.0239e+12
    10.861 9.0256e+12
    10.873 9.0273e+12
    10.886  9.029e+12
    10.898 9.0307e+12
     10.91 9.0324e+12
    10.923 9.0341e+12
    10.935 9.0358e+12
    10.948 9.0375e+12
     10.96 9.0392e+12
    10.972 9.0408e+12
    10.985 9.0425e+12
    10.997 9.0442e+12
     11.01 9.0459e+12
    11.022 9.0476e+12
    11.034 9.0492e+12
    11.047 9.0509e+12
    11.059 9.0526e+12
    11.072 9.0542e+12
    11.084 9.0559e+12
    11.096 9.0576e+12
    11.109 9.0592e+12
    11.121 9.0609e+12
    11.134 9.0625e+12
    11.146 9.0642e+12
    11.158 9.0658e+12
    11.171 9.0675e+12
    11.183 9.0691e+12
    11.196 9.0707e+12
    11.208 9.0724e+12
