RRKM rate, sf=0.970, S*=-13.25, E0=0.30 and Delta=-0.00
   En (eV)    k (s-1)
         0          0
  0.012398          0
  0.024796          0
  0.037194          0
  0.049593          0
  0.061991          0
  0.074389          0
  0.086787          0
  0.099185          0
   0.11158          0
   0.12398          0
   0.13638          0
   0.14878          0
   0.16118          0
   0.17357          0
   0.18597          0
   0.19837          0
   0.21077          0
   0.22317          0
   0.23556          0
   0.24796          0
   0.26036          0
   0.27276          0
   0.28516          0
   0.29756          0
   0.30995 4.1753e+06
   0.32235 8.5962e+06
   0.33475 1.7794e+07
   0.34715 2.8804e+07
   0.35955 4.2078e+07
   0.37194 6.0972e+07
   0.38434 8.1118e+07
   0.39674 1.0871e+08
   0.40914 1.3875e+08
   0.42154 1.7541e+08
   0.43393 2.1791e+08
   0.44633 2.6525e+08
   0.45873 3.2113e+08
   0.47113 3.8144e+08
   0.48353 4.5092e+08
   0.49593 5.2673e+08
   0.50832 6.1085e+08
   0.52072 7.0368e+08
   0.53312 8.0406e+08
   0.54552 9.1463e+08
   0.55792 1.0332e+09
   0.57031 1.1623e+09
   0.58271 1.3007e+09
   0.59511 1.4493e+09
   0.60751 1.6086e+09
   0.61991 1.7781e+09
    0.6323 1.9591e+09
    0.6447 2.1508e+09
    0.6571 2.3543e+09
    0.6695 2.5694e+09
    0.6819 2.7964e+09
    0.6943 3.0358e+09
   0.70669 3.2873e+09
   0.71909 3.5516e+09
   0.73149 3.8286e+09
   0.74389 4.1186e+09
   0.75629 4.4218e+09
   0.76868 4.7384e+09
   0.78108 5.0686e+09
   0.79348 5.4125e+09
   0.80588 5.7703e+09
   0.81828 6.1421e+09
   0.83067 6.5281e+09
   0.84307 6.9285e+09
   0.85547 7.3433e+09
   0.86787 7.7728e+09
   0.88027  8.217e+09
   0.89267 8.6761e+09
   0.90506 9.1501e+09
   0.91746 9.6393e+09
   0.92986 1.0144e+10
   0.94226 1.0663e+10
   0.95466 1.1199e+10
   0.96705 1.1749e+10
   0.97945 1.2315e+10
   0.99185 1.2897e+10
    1.0042 1.3495e+10
    1.0166 1.4108e+10
     1.029 1.4738e+10
    1.0414 1.5383e+10
    1.0538 1.6045e+10
    1.0662 1.6722e+10
    1.0786 1.7416e+10
     1.091 1.8126e+10
    1.1034 1.8852e+10
    1.1158 1.9594e+10
    1.1282 2.0353e+10
    1.1406 2.1128e+10
     1.153 2.1919e+10
    1.1654 2.2727e+10
    1.1778 2.3552e+10
    1.1902 2.4393e+10
    1.2026  2.525e+10
     1.215 2.6124e+10
    1.2274 2.7015e+10
    1.2398 2.7922e+10
    1.2522 2.8846e+10
    1.2646 2.9786e+10
     1.277 3.0743e+10
    1.2894 3.1717e+10
    1.3018 3.2707e+10
    1.3142 3.3714e+10
    1.3266 3.4737e+10
     1.339 3.5777e+10
    1.3514 3.6834e+10
    1.3638 3.7908e+10
    1.3762 3.8997e+10
    1.3886 4.0104e+10
     1.401 4.1227e+10
    1.4134 4.2367e+10
    1.4258 4.3523e+10
    1.4382 4.4696e+10
    1.4506 4.5885e+10
     1.463 4.7091e+10
    1.4754 4.8313e+10
    1.4878 4.9551e+10
    1.5002 5.0807e+10
    1.5126 5.2078e+10
     1.525 5.3366e+10
    1.5374  5.467e+10
    1.5498 5.5991e+10
    1.5622 5.7327e+10
    1.5746  5.868e+10
     1.587 6.0049e+10
    1.5994 6.1435e+10
    1.6118 6.2836e+10
    1.6242 6.4254e+10
    1.6366 6.5688e+10
     1.649 6.7138e+10
    1.6613 6.8603e+10
    1.6737 7.0085e+10
    1.6861 7.1582e+10
    1.6985 7.3095e+10
    1.7109 7.4625e+10
    1.7233  7.617e+10
    1.7357 7.7731e+10
    1.7481 7.9307e+10
    1.7605 8.0899e+10
    1.7729 8.2506e+10
    1.7853  8.413e+10
    1.7977 8.5769e+10
    1.8101 8.7423e+10
    1.8225 8.9092e+10
    1.8349 9.0777e+10
    1.8473 9.2477e+10
    1.8597 9.4192e+10
    1.8721 9.5923e+10
    1.8845 9.7669e+10
    1.8969 9.9429e+10
    1.9093 1.0121e+11
    1.9217   1.03e+11
    1.9341  1.048e+11
    1.9465 1.0662e+11
    1.9589 1.0846e+11
    1.9713 1.1031e+11
    1.9837 1.1217e+11
    1.9961 1.1405e+11
    2.0085 1.1595e+11
    2.0209 1.1786e+11
    2.0333 1.1978e+11
    2.0457 1.2172e+11
    2.0581 1.2367e+11
    2.0705 1.2563e+11
    2.0829 1.2761e+11
    2.0953 1.2961e+11
    2.1077 1.3162e+11
    2.1201 1.3364e+11
    2.1325 1.3568e+11
    2.1449 1.3773e+11
    2.1573 1.3979e+11
    2.1697 1.4187e+11
    2.1821 1.4396e+11
    2.1945 1.4607e+11
    2.2069 1.4819e+11
    2.2193 1.5032e+11
    2.2317 1.5247e+11
    2.2441 1.5463e+11
    2.2565  1.568e+11
    2.2689 1.5899e+11
    2.2813 1.6119e+11
    2.2937 1.6341e+11
    2.3061 1.6563e+11
    2.3185 1.6787e+11
    2.3308 1.7013e+11
    2.3432 1.7239e+11
    2.3556 1.7467e+11
     2.368 1.7696e+11
    2.3804 1.7927e+11
    2.3928 1.8159e+11
    2.4052 1.8392e+11
    2.4176 1.8626e+11
      2.43 1.8861e+11
    2.4424 1.9098e+11
    2.4548 1.9336e+11
    2.4672 1.9576e+11
    2.4796 1.9816e+11
     2.492 2.0058e+11
    2.5044 2.0301e+11
    2.5168 2.0545e+11
    2.5292 2.0791e+11
    2.5416 2.1037e+11
     2.554 2.1285e+11
    2.5664 2.1534e+11
    2.5788 2.1784e+11
    2.5912 2.2036e+11
    2.6036 2.2288e+11
     2.616 2.2542e+11
    2.6284 2.2797e+11
    2.6408 2.3053e+11
    2.6532  2.331e+11
    2.6656 2.3568e+11
     2.678 2.3828e+11
    2.6904 2.4088e+11
    2.7028  2.435e+11
    2.7152 2.4613e+11
    2.7276 2.4877e+11
      2.74 2.5142e+11
    2.7524 2.5408e+11
    2.7648 2.5676e+11
    2.7772 2.5944e+11
    2.7896 2.6214e+11
     2.802 2.6484e+11
    2.8144 2.6756e+11
    2.8268 2.7028e+11
    2.8392 2.7302e+11
    2.8516 2.7577e+11
     2.864 2.7853e+11
    2.8764  2.813e+11
    2.8888 2.8408e+11
    2.9012 2.8687e+11
    2.9136 2.8967e+11
     2.926 2.9248e+11
    2.9384  2.953e+11
    2.9508 2.9813e+11
    2.9632 3.0098e+11
    2.9756 3.0383e+11
     2.988 3.0669e+11
    3.0003 3.0956e+11
    3.0127 3.1244e+11
    3.0251 3.1533e+11
    3.0375 3.1823e+11
    3.0499 3.2114e+11
    3.0623 3.2406e+11
    3.0747 3.2699e+11
    3.0871 3.2993e+11
    3.0995 3.3288e+11
    3.1119 3.3584e+11
    3.1243 3.3881e+11
    3.1367 3.4178e+11
    3.1491 3.4477e+11
    3.1615 3.4777e+11
    3.1739 3.5077e+11
    3.1863 3.5379e+11
    3.1987 3.5681e+11
    3.2111 3.5984e+11
    3.2235 3.6288e+11
    3.2359 3.6593e+11
    3.2483 3.6899e+11
    3.2607 3.7206e+11
    3.2731 3.7514e+11
    3.2855 3.7822e+11
    3.2979 3.8131e+11
    3.3103 3.8442e+11
    3.3227 3.8753e+11
    3.3351 3.9065e+11
    3.3475 3.9377e+11
    3.3599 3.9691e+11
    3.3723 4.0006e+11
    3.3847 4.0321e+11
    3.3971 4.0637e+11
    3.4095 4.0954e+11
    3.4219 4.1272e+11
    3.4343 4.1591e+11
    3.4467  4.191e+11
    3.4591  4.223e+11
    3.4715 4.2551e+11
    3.4839 4.2873e+11
    3.4963 4.3196e+11
    3.5087 4.3519e+11
    3.5211 4.3843e+11
    3.5335 4.4168e+11
    3.5459 4.4494e+11
    3.5583  4.482e+11
    3.5707 4.5148e+11
    3.5831 4.5476e+11
    3.5955 4.5804e+11
    3.6079 4.6134e+11
    3.6203 4.6464e+11
    3.6327 4.6795e+11
    3.6451 4.7127e+11
    3.6574 4.7459e+11
    3.6698 4.7792e+11
    3.6822 4.8126e+11
    3.6946 4.8461e+11
     3.707 4.8796e+11
    3.7194 4.9132e+11
    3.7318 4.9469e+11
    3.7442 4.9807e+11
    3.7566 5.0145e+11
     3.769 5.0483e+11
    3.7814 5.0823e+11
    3.7938 5.1163e+11
    3.8062 5.1504e+11
    3.8186 5.1845e+11
     3.831 5.2188e+11
    3.8434 5.2531e+11
    3.8558 5.2874e+11
    3.8682 5.3218e+11
    3.8806 5.3563e+11
     3.893 5.3909e+11
    3.9054 5.4255e+11
    3.9178 5.4602e+11
    3.9302 5.4949e+11
    3.9426 5.5297e+11
     3.955 5.5646e+11
    3.9674 5.5995e+11
    3.9798 5.6345e+11
    3.9922 5.6696e+11
    4.0046 5.7047e+11
     4.017 5.7398e+11
    4.0294 5.7751e+11
    4.0418 5.8103e+11
    4.0542 5.8457e+11
    4.0666 5.8811e+11
     4.079 5.9166e+11
    4.0914 5.9521e+11
    4.1038 5.9877e+11
    4.1162 6.0234e+11
    4.1286 6.0591e+11
     4.141 6.0948e+11
    4.1534 6.1307e+11
    4.1658 6.1665e+11
    4.1782 6.2025e+11
    4.1906 6.2384e+11
     4.203 6.2745e+11
    4.2154 6.3106e+11
    4.2278 6.3467e+11
    4.2402 6.3829e+11
    4.2526 6.4192e+11
     4.265 6.4555e+11
    4.2774 6.4918e+11
    4.2898 6.5283e+11
    4.3022 6.5647e+11
    4.3146 6.6013e+11
    4.3269 6.6378e+11
    4.3393 6.6745e+11
    4.3517 6.7111e+11
    4.3641 6.7478e+11
    4.3765 6.7846e+11
    4.3889 6.8214e+11
    4.4013 6.8583e+11
    4.4137 6.8952e+11
    4.4261 6.9322e+11
    4.4385 6.9692e+11
    4.4509 7.0063e+11
    4.4633 7.0434e+11
    4.4757 7.0805e+11
    4.4881 7.1177e+11
    4.5005  7.155e+11
    4.5129 7.1923e+11
    4.5253 7.2296e+11
    4.5377  7.267e+11
    4.5501 7.3045e+11
    4.5625 7.3419e+11
    4.5749 7.3794e+11
    4.5873  7.417e+11
    4.5997 7.4546e+11
    4.6121 7.4923e+11
    4.6245 7.5299e+11
    4.6369 7.5677e+11
    4.6493 7.6055e+11
    4.6617 7.6433e+11
    4.6741 7.6812e+11
    4.6865 7.7191e+11
    4.6989  7.757e+11
    4.7113  7.795e+11
    4.7237 7.8331e+11
    4.7361 7.8711e+11
    4.7485 7.9093e+11
    4.7609 7.9474e+11
    4.7733 7.9856e+11
    4.7857 8.0238e+11
    4.7981 8.0621e+11
    4.8105 8.1004e+11
    4.8229 8.1388e+11
    4.8353 8.1771e+11
    4.8477 8.2156e+11
    4.8601  8.254e+11
    4.8725 8.2925e+11
    4.8849 8.3311e+11
    4.8973 8.3696e+11
    4.9097 8.4082e+11
    4.9221 8.4468e+11
    4.9345 8.4855e+11
    4.9469 8.5242e+11
    4.9593  8.563e+11
    4.9717 8.6018e+11
     4.984 8.6406e+11
    4.9964 8.6795e+11
    5.0088 8.7184e+11
    5.0212 8.7573e+11
    5.0336 8.7962e+11
     5.046 8.8352e+11
    5.0584 8.8743e+11
    5.0708 8.9133e+11
    5.0832 8.9524e+11
    5.0956 8.9915e+11
     5.108 9.0306e+11
    5.1204 9.0698e+11
    5.1328 9.1091e+11
    5.1452 9.1483e+11
    5.1576 9.1876e+11
      5.17 9.2269e+11
    5.1824 9.2662e+11
    5.1948 9.3056e+11
    5.2072  9.345e+11
    5.2196 9.3844e+11
     5.232 9.4238e+11
    5.2444 9.4633e+11
    5.2568 9.5028e+11
    5.2692 9.5424e+11
    5.2816  9.582e+11
     5.294 9.6215e+11
    5.3064 9.6611e+11
    5.3188 9.7008e+11
    5.3312 9.7405e+11
    5.3436 9.7802e+11
     5.356 9.8199e+11
    5.3684 9.8597e+11
    5.3808 9.8995e+11
    5.3932 9.9392e+11
    5.4056 9.9791e+11
     5.418 1.0019e+12
    5.4304 1.0059e+12
    5.4428 1.0099e+12
    5.4552 1.0139e+12
    5.4676 1.0179e+12
      5.48 1.0219e+12
    5.4924 1.0259e+12
    5.5048 1.0299e+12
    5.5172 1.0339e+12
    5.5296 1.0379e+12
     5.542 1.0419e+12
    5.5544 1.0459e+12
    5.5668 1.0499e+12
    5.5792 1.0539e+12
    5.5916  1.058e+12
     5.604  1.062e+12
    5.6164  1.066e+12
    5.6288   1.07e+12
    5.6412 1.0741e+12
    5.6535 1.0781e+12
    5.6659 1.0821e+12
    5.6783 1.0862e+12
    5.6907 1.0902e+12
    5.7031 1.0942e+12
    5.7155 1.0983e+12
    5.7279 1.1023e+12
    5.7403 1.1064e+12
    5.7527 1.1104e+12
    5.7651 1.1144e+12
    5.7775 1.1185e+12
    5.7899 1.1225e+12
    5.8023 1.1266e+12
    5.8147 1.1307e+12
    5.8271 1.1347e+12
    5.8395 1.1388e+12
    5.8519 1.1428e+12
    5.8643 1.1469e+12
    5.8767  1.151e+12
    5.8891  1.155e+12
    5.9015 1.1591e+12
    5.9139 1.1632e+12
    5.9263 1.1672e+12
    5.9387 1.1713e+12
    5.9511 1.1754e+12
    5.9635 1.1795e+12
    5.9759 1.1835e+12
    5.9883 1.1876e+12
    6.0007 1.1917e+12
    6.0131 1.1958e+12
    6.0255 1.1999e+12
    6.0379  1.204e+12
    6.0503  1.208e+12
    6.0627 1.2121e+12
    6.0751 1.2162e+12
    6.0875 1.2203e+12
    6.0999 1.2244e+12
    6.1123 1.2285e+12
    6.1247 1.2326e+12
    6.1371 1.2367e+12
    6.1495 1.2408e+12
    6.1619 1.2449e+12
    6.1743  1.249e+12
    6.1867 1.2531e+12
    6.1991 1.2572e+12
    6.2115 1.2613e+12
    6.2239 1.2654e+12
    6.2363 1.2695e+12
    6.2487 1.2736e+12
    6.2611 1.2777e+12
    6.2735 1.2818e+12
    6.2859 1.2859e+12
    6.2983 1.2901e+12
    6.3107 1.2942e+12
     6.323 1.2983e+12
    6.3354 1.3024e+12
    6.3478 1.3065e+12
    6.3602 1.3106e+12
    6.3726 1.3148e+12
     6.385 1.3189e+12
    6.3974  1.323e+12
    6.4098 1.3271e+12
    6.4222 1.3312e+12
    6.4346 1.3354e+12
     6.447 1.3395e+12
    6.4594 1.3436e+12
    6.4718 1.3477e+12
    6.4842 1.3519e+12
    6.4966  1.356e+12
     6.509 1.3601e+12
    6.5214 1.3643e+12
    6.5338 1.3684e+12
    6.5462 1.3725e+12
    6.5586 1.3766e+12
     6.571 1.3808e+12
    6.5834 1.3849e+12
    6.5958 1.3891e+12
    6.6082 1.3932e+12
    6.6206 1.3973e+12
     6.633 1.4015e+12
    6.6454 1.4056e+12
    6.6578 1.4097e+12
    6.6702 1.4139e+12
    6.6826  1.418e+12
     6.695 1.4222e+12
    6.7074 1.4263e+12
    6.7198 1.4304e+12
    6.7322 1.4346e+12
    6.7446 1.4387e+12
     6.757 1.4429e+12
    6.7694  1.447e+12
    6.7818 1.4511e+12
    6.7942 1.4553e+12
    6.8066 1.4594e+12
     6.819 1.4636e+12
    6.8314 1.4677e+12
    6.8438 1.4719e+12
    6.8562  1.476e+12
    6.8686 1.4802e+12
     6.881 1.4843e+12
    6.8934 1.4884e+12
    6.9058 1.4926e+12
    6.9182 1.4967e+12
    6.9306 1.5009e+12
     6.943  1.505e+12
    6.9554 1.5092e+12
    6.9678 1.5133e+12
    6.9801 1.5175e+12
    6.9925 1.5216e+12
    7.0049 1.5258e+12
    7.0173 1.5299e+12
    7.0297 1.5341e+12
    7.0421 1.5382e+12
    7.0545 1.5424e+12
    7.0669 1.5465e+12
    7.0793 1.5507e+12
    7.0917 1.5549e+12
    7.1041  1.559e+12
    7.1165 1.5632e+12
    7.1289 1.5673e+12
    7.1413 1.5715e+12
    7.1537 1.5756e+12
    7.1661 1.5798e+12
    7.1785 1.5839e+12
    7.1909 1.5881e+12
    7.2033 1.5922e+12
    7.2157 1.5964e+12
    7.2281 1.6005e+12
    7.2405 1.6047e+12
    7.2529 1.6088e+12
    7.2653  1.613e+12
    7.2777 1.6171e+12
    7.2901 1.6213e+12
    7.3025 1.6254e+12
    7.3149 1.6296e+12
    7.3273 1.6337e+12
    7.3397 1.6379e+12
    7.3521  1.642e+12
    7.3645 1.6462e+12
    7.3769 1.6503e+12
    7.3893 1.6545e+12
    7.4017 1.6586e+12
    7.4141 1.6628e+12
    7.4265  1.667e+12
    7.4389 1.6711e+12
    7.4513 1.6752e+12
    7.4637 1.6794e+12
    7.4761 1.6836e+12
    7.4885 1.6877e+12
    7.5009 1.6919e+12
    7.5133  1.696e+12
    7.5257 1.7002e+12
    7.5381 1.7043e+12
    7.5505 1.7085e+12
    7.5629 1.7126e+12
    7.5753 1.7168e+12
    7.5877 1.7209e+12
    7.6001  1.725e+12
    7.6125 1.7292e+12
    7.6249 1.7333e+12
    7.6373 1.7375e+12
    7.6496 1.7416e+12
     7.662 1.7458e+12
    7.6744 1.7499e+12
    7.6868 1.7541e+12
    7.6992 1.7582e+12
    7.7116 1.7624e+12
     7.724 1.7665e+12
    7.7364 1.7707e+12
    7.7488 1.7748e+12
    7.7612 1.7789e+12
    7.7736 1.7831e+12
     7.786 1.7872e+12
    7.7984 1.7914e+12
    7.8108 1.7955e+12
    7.8232 1.7997e+12
    7.8356 1.8038e+12
     7.848 1.8079e+12
    7.8604 1.8121e+12
    7.8728 1.8162e+12
    7.8852 1.8203e+12
    7.8976 1.8245e+12
      7.91 1.8286e+12
    7.9224 1.8328e+12
    7.9348 1.8369e+12
    7.9472  1.841e+12
    7.9596 1.8452e+12
     7.972 1.8493e+12
    7.9844 1.8534e+12
    7.9968 1.8576e+12
    8.0092 1.8617e+12
    8.0216 1.8658e+12
     8.034   1.87e+12
    8.0464 1.8741e+12
    8.0588 1.8782e+12
    8.0712 1.8824e+12
    8.0836 1.8865e+12
     8.096 1.8906e+12
    8.1084 1.8947e+12
    8.1208 1.8989e+12
    8.1332  1.903e+12
    8.1456 1.9071e+12
     8.158 1.9113e+12
    8.1704 1.9154e+12
    8.1828 1.9195e+12
    8.1952 1.9236e+12
    8.2076 1.9277e+12
      8.22 1.9319e+12
    8.2324  1.936e+12
    8.2448 1.9401e+12
    8.2572 1.9442e+12
    8.2696 1.9483e+12
     8.282 1.9525e+12
    8.2944 1.9566e+12
    8.3067 1.9607e+12
    8.3191 1.9648e+12
    8.3315 1.9689e+12
    8.3439  1.973e+12
    8.3563 1.9772e+12
    8.3687 1.9813e+12
    8.3811 1.9854e+12
    8.3935 1.9895e+12
    8.4059 1.9936e+12
    8.4183 1.9977e+12
    8.4307 2.0018e+12
    8.4431 2.0059e+12
    8.4555   2.01e+12
    8.4679 2.0141e+12
    8.4803 2.0182e+12
    8.4927 2.0223e+12
    8.5051 2.0264e+12
    8.5175 2.0305e+12
    8.5299 2.0346e+12
    8.5423 2.0387e+12
    8.5547 2.0428e+12
    8.5671 2.0469e+12
    8.5795  2.051e+12
    8.5919 2.0551e+12
    8.6043 2.0592e+12
    8.6167 2.0633e+12
    8.6291 2.0674e+12
    8.6415 2.0715e+12
    8.6539 2.0756e+12
    8.6663 2.0797e+12
    8.6787 2.0837e+12
    8.6911 2.0878e+12
    8.7035 2.0919e+12
    8.7159  2.096e+12
    8.7283 2.1001e+12
    8.7407 2.1042e+12
    8.7531 2.1083e+12
    8.7655 2.1123e+12
    8.7779 2.1164e+12
    8.7903 2.1205e+12
    8.8027 2.1246e+12
    8.8151 2.1287e+12
    8.8275 2.1327e+12
    8.8399 2.1368e+12
    8.8523 2.1409e+12
    8.8647  2.145e+12
    8.8771  2.149e+12
    8.8895 2.1531e+12
    8.9019 2.1572e+12
    8.9143 2.1612e+12
    8.9267 2.1653e+12
    8.9391 2.1694e+12
    8.9515 2.1734e+12
    8.9639 2.1775e+12
    8.9762 2.1816e+12
    8.9886 2.1856e+12
     9.001 2.1897e+12
    9.0134 2.1937e+12
    9.0258 2.1978e+12
    9.0382 2.2019e+12
    9.0506 2.2059e+12
     9.063   2.21e+12
    9.0754  2.214e+12
    9.0878 2.2181e+12
    9.1002 2.2221e+12
    9.1126 2.2262e+12
     9.125 2.2302e+12
    9.1374 2.2343e+12
    9.1498 2.2383e+12
    9.1622 2.2423e+12
    9.1746 2.2464e+12
     9.187 2.2504e+12
    9.1994 2.2545e+12
    9.2118 2.2585e+12
    9.2242 2.2625e+12
    9.2366 2.2666e+12
     9.249 2.2706e+12
    9.2614 2.2746e+12
    9.2738 2.2787e+12
    9.2862 2.2827e+12
    9.2986 2.2867e+12
     9.311 2.2908e+12
    9.3234 2.2948e+12
    9.3358 2.2988e+12
    9.3482 2.3028e+12
    9.3606 2.3069e+12
     9.373 2.3109e+12
    9.3854 2.3149e+12
    9.3978 2.3189e+12
    9.4102  2.323e+12
    9.4226  2.327e+12
     9.435  2.331e+12
    9.4474  2.335e+12
    9.4598  2.339e+12
    9.4722  2.343e+12
    9.4846  2.347e+12
     9.497  2.351e+12
    9.5094  2.355e+12
    9.5218 2.3591e+12
    9.5342 2.3631e+12
    9.5466 2.3671e+12
     9.559 2.3711e+12
    9.5714 2.3751e+12
    9.5838  2.379e+12
    9.5962 2.3831e+12
    9.6086  2.387e+12
     9.621  2.391e+12
    9.6333  2.395e+12
    9.6457  2.399e+12
    9.6581  2.403e+12
    9.6705  2.407e+12
    9.6829  2.411e+12
    9.6953  2.415e+12
    9.7077  2.419e+12
    9.7201 2.4229e+12
    9.7325 2.4269e+12
    9.7449 2.4309e+12
    9.7573 2.4349e+12
    9.7697 2.4389e+12
    9.7821 2.4428e+12
    9.7945 2.4468e+12
    9.8069 2.4508e+12
    9.8193 2.4548e+12
    9.8317 2.4587e+12
    9.8441 2.4627e+12
    9.8565 2.4667e+12
    9.8689 2.4706e+12
    9.8813 2.4746e+12
    9.8937 2.4786e+12
    9.9061 2.4825e+12
    9.9185 2.4865e+12
    9.9309 2.4904e+12
    9.9433 2.4944e+12
    9.9557 2.4983e+12
    9.9681 2.5023e+12
    9.9805 2.5062e+12
    9.9929 2.5102e+12
    10.005 2.5141e+12
    10.018 2.5181e+12
     10.03  2.522e+12
    10.042  2.526e+12
    10.055 2.5299e+12
    10.067 2.5339e+12
     10.08 2.5378e+12
    10.092 2.5417e+12
    10.104 2.5457e+12
    10.117 2.5496e+12
    10.129 2.5535e+12
    10.142 2.5575e+12
    10.154 2.5614e+12
    10.166 2.5653e+12
    10.179 2.5693e+12
    10.191 2.5732e+12
    10.204 2.5771e+12
    10.216  2.581e+12
    10.228  2.585e+12
    10.241 2.5889e+12
    10.253 2.5928e+12
    10.266 2.5967e+12
    10.278 2.6006e+12
     10.29 2.6045e+12
    10.303 2.6084e+12
    10.315 2.6123e+12
    10.328 2.6163e+12
     10.34 2.6202e+12
    10.352 2.6241e+12
    10.365  2.628e+12
    10.377 2.6319e+12
     10.39 2.6358e+12
    10.402 2.6397e+12
    10.414 2.6436e+12
    10.427 2.6475e+12
    10.439 2.6513e+12
    10.452 2.6552e+12
    10.464 2.6591e+12
    10.476  2.663e+12
    10.489 2.6669e+12
    10.501 2.6708e+12
    10.514 2.6747e+12
    10.526 2.6785e+12
    10.538 2.6824e+12
    10.551 2.6863e+12
    10.563 2.6902e+12
    10.576 2.6941e+12
    10.588 2.6979e+12
      10.6 2.7018e+12
    10.613 2.7057e+12
    10.625 2.7095e+12
    10.638 2.7134e+12
     10.65 2.7173e+12
    10.662 2.7211e+12
    10.675  2.725e+12
    10.687 2.7289e+12
      10.7 2.7327e+12
    10.712 2.7366e+12
    10.724 2.7404e+12
    10.737 2.7443e+12
    10.749 2.7481e+12
    10.762  2.752e+12
    10.774 2.7558e+12
    10.786 2.7597e+12
    10.799 2.7635e+12
    10.811 2.7673e+12
    10.824 2.7712e+12
    10.836  2.775e+12
    10.848 2.7789e+12
    10.861 2.7827e+12
    10.873 2.7865e+12
    10.886 2.7904e+12
    10.898 2.7942e+12
     10.91  2.798e+12
    10.923 2.8019e+12
    10.935 2.8057e+12
    10.948 2.8095e+12
     10.96 2.8133e+12
    10.972 2.8171e+12
    10.985 2.8209e+12
    10.997 2.8248e+12
     11.01 2.8286e+12
    11.022 2.8324e+12
    11.034 2.8362e+12
    11.047   2.84e+12
    11.059 2.8438e+12
    11.072 2.8476e+12
    11.084 2.8514e+12
    11.096 2.8552e+12
    11.109  2.859e+12
    11.121 2.8628e+12
    11.134 2.8666e+12
    11.146 2.8704e+12
    11.158 2.8742e+12
    11.171  2.878e+12
    11.183 2.8818e+12
    11.196 2.8856e+12
    11.208 2.8894e+12
